# t (s)	mx ()	my ()	mz ()	E_total (J)	MaxAngle (rad)
0	1.2304466e-09	8.5596286e-10	0.97953635	-2.072577e-17	0.2662738
2.5180251251783587e-12	3.9423673e-09	-1.6460824e-11	0.9727544	-2.0697396e-17	0.24544206
5.045343734013389e-12	8.592551e-09	1.8106907e-09	0.96664745	-2.0640133e-17	0.23372002
7.519527467706999e-12	1.1769489e-08	9.38267e-09	0.962086	-2.056034e-17	0.22956492
1.0042234530996247e-11	1.0008181e-08	2.0707716e-08	0.9595957	-2.0460523e-17	0.22961442
1.251426356566047e-11	1.1851794e-09	3.094635e-08	0.95954037	-2.0349842e-17	0.22873259
1.5034849398958557e-11	-1.3827092e-08	3.753068e-08	0.9617527	-2.0224321e-17	0.22697785
1.7505396664811115e-11	-3.3580083e-08	3.5818754e-08	0.9656374	-2.0082968e-17	0.22567633
2.002497015386503e-11	-5.7217825e-08	2.057603e-08	0.97019255	-1.9906173e-17	0.22391741
2.2544292009976037e-11	-7.614777e-08	-1.0139868e-08	0.9725452	-1.9677255e-17	0.21654953
2.501403718268503e-11	-7.882883e-08	-5.372813e-08	0.96645033	-1.943246e-17	0.20372994
2.753303240069068e-11	-5.2740482e-08	-9.362917e-08	0.94336396	-1.9349695e-17	0.2134484
3.00025171137371e-11	-1.3695406e-08	-1.12493275e-07	0.906096	-1.9495724e-17	0.23084308
3.25212490466195e-11	3.63455e-08	-9.5801994e-08	0.86886317	-1.9714445e-17	0.242671
3.503997663849337e-11	8.2172434e-08	-5.593388e-08	0.8409252	-1.9898222e-17	0.21476519
3.75093268020592e-11	1.0676491e-07	-2.2123348e-08	0.8201356	-2.0017028e-17	0.20533223
4.002770915349493e-11	1.10945955e-07	6.728362e-09	0.8044533	-2.0081689e-17	0.20628424
4.254574507178496e-11	9.922585e-08	3.118709e-08	0.7937915	-2.0109828e-17	0.21016261
4.501455493744273e-11	7.6625135e-08	4.938247e-08	0.7876054	-2.0118387e-17	0.21237963
4.7532812974064584e-11	5.2049128e-08	5.8987364e-08	0.7848389	-2.0118758e-17	0.21389337
5.0001670053048433e-11	2.9827014e-08	5.971987e-08	0.78496724	-2.0117094e-17	0.21414933
5.251981338130372e-11	1.3102816e-08	5.3662287e-08	0.78739613	-2.0116386e-17	0.21395542
5.5037974558404756e-11	2.9794092e-09	4.4855746e-08	0.7914676	-2.0117823e-17	0.21399668
5.7506760022036564e-11	-1.316866e-09	3.6226158e-08	0.7965856	-2.0121496e-17	0.21542007
6.002494372877487e-11	-3.2592433e-09	2.9248827e-08	0.80264556	-2.0127245e-17	0.21506426
6.254312449068186e-11	-3.555538e-09	2.2228285e-08	0.8092324	-2.013447e-17	0.21732987
6.501194132039319e-11	-2.3703588e-09	1.686e-08	0.81585765	-2.014235e-17	0.2174512
6.753011247922205e-11	4.4444226e-10	1.2598703e-08	0.82248676	-2.0150537e-17	0.21961302
7.004828763071083e-11	3.5843446e-09	9.226292e-09	0.82877886	-2.0158287e-17	0.22023375
7.251706880348498e-11	7.111076e-09	7.308606e-09	0.8344983	-2.0165049e-17	0.22189467
7.503523029938672e-11	1.06995355e-08	5.892975e-09	0.83980477	-2.0170791e-17	0.22225325
7.750400217958511e-11	1.3530798e-08	6.6830945e-09	0.84446454	-2.0175144e-17	0.22391123
8.002214434155202e-11	1.557194e-08	8.559629e-09	0.8486777	-2.0178247e-17	0.22376569
8.254027537095286e-11	1.5901156e-08	1.0666614e-08	0.85239446	-2.018004e-17	0.2250583
8.500902399969996e-11	1.5555479e-08	1.3234502e-08	0.8556249	-2.0180586e-17	0.22583503
8.752714279705988e-11	1.4255074e-08	1.4814741e-08	0.85857373	-2.0179994e-17	0.22568324
9.00452760716639e-11	1.2213931e-08	1.6724197e-08	0.86124265	-2.0178353e-17	0.22626187
9.251401905207694e-11	1.0765379e-08	1.655959e-08	0.8636444	-2.0175822e-17	0.22710787
9.503213496826341e-11	1.0436163e-08	1.698757e-08	0.86592394	-2.0172389e-17	0.227378
9.750087917613234e-11	9.020532e-09	1.8633653e-08	0.8680316	-2.0168242e-17	0.22721453
1.0001899654525338e-10	7.539057e-09	1.955546e-08	0.8700872	-2.0163247e-17	0.22656853
1.0253711369621925e-10	6.090505e-09	2.0279735e-08	0.8720779	-2.015749e-17	0.2254722
1.0500584562232162e-10	4.8065605e-09	2.074064e-08	0.87399226	-2.0151083e-17	0.22397484
1.0752397821724039e-10	2.6008102e-09	2.2123348e-08	0.87593067	-2.0143727e-17	0.22201976
1.1004209060039406e-10	1.3168659e-10	2.2386722e-08	0.8778764	-2.0135457e-17	0.22143134
1.1251082757322107e-10	-2.2715938e-09	2.3506058e-08	0.8798117	-2.0126338e-17	0.22071427
1.1502894808603848e-10	-4.872404e-09	2.3045153e-08	0.8818358	-2.0115853e-17	0.21946329
1.1754705907328788e-10	-6.748938e-09	2.35719e-08	0.8839339	-2.0103956e-17	0.21762712
1.2001579908060053e-10	-8.691315e-09	2.3242684e-08	0.8860878	-2.0090644e-17	0.21761084
1.225339214650206e-10	-1.1654263e-08	2.3440213e-08	0.88841295	-2.007502e-17	0.2169885
1.2500265558597955e-10	-1.48476635e-08	2.3835273e-08	0.8908511	-2.0057224e-17	0.21556613
1.2752078137201362e-10	-1.9226242e-08	2.3703587e-08	0.89353997	-2.0035911e-17	0.21512178
1.3003890159211607e-10	-2.4888767e-08	2.317684e-08	0.8964814	-2.0010526e-17	0.21483986
1.3250766717345705e-10	-3.0814665e-08	2.1333229e-08	0.8996667	-1.9980554e-17	0.21315698
1.350257937270259e-10	-3.8123268e-08	1.8897026e-08	0.9032917	-1.99432e-17	0.21393493
1.3754392602723353e-10	-4.5859856e-08	1.4222152e-08	0.90737504	-1.9896782e-17	0.21253623
1.4001268117862958e-10	-5.609849e-08	7.547288e-09	0.9119027	-1.9839479e-17	0.21359776
1.4253081993945545e-10	-6.663342e-08	-3.2263217e-09	0.9171224	-1.976473e-17	0.21339579
1.4504897492146268e-10	-7.9242405e-08	-1.9456694e-08	0.92295486	-1.9667414e-17	0.21280478
1.4751774949222203e-10	-8.9612726e-08	-4.4773444e-08	0.9291118	-1.9541627e-17	0.2130747
1.5003592894914489e-10	-9.5538624e-08	-8.177737e-08	0.9352926	-1.936989e-17	0.21282257
1.5250473297615435e-10	-9.040285e-08	-1.2905286e-07	0.939898	-1.9142926e-17	0.21169792
1.550229362139069e-10	-6.6732184e-08	-1.8580978e-07	0.9400168	-1.8842362e-17	0.2090302
1.5754115124066322e-10	-1.2164549e-08	-2.3743092e-07	0.92982775	-1.852263e-17	0.2095867
1.6000999306973563e-10	8.2797946e-08	-2.5125803e-07	0.90458643	-1.8355015e-17	0.22707821
1.6252821185557598e-10	1.8136537e-07	-2.2228697e-07	0.868583	-1.8511437e-17	0.25273952
1.650464266408413e-10	2.582374e-07	-1.7678926e-07	0.8337638	-1.8919219e-17	0.2169622
1.6751535488209277e-10	2.9392447e-07	-6.8658096e-08	0.80205405	-1.9291137e-17	0.20080237
1.7003394239571738e-10	2.6900278e-07	5.9094358e-08	0.7727528	-1.95491e-17	0.20048806
1.7250306295918253e-10	2.0187555e-07	1.5196633e-07	0.74833983	-1.9705687e-17	0.20529774
1.7502099181147255e-10	1.1734099e-07	1.9265748e-07	0.7286971	-1.9799187e-17	0.20972244
1.7753904859011262e-10	4.1201442e-08	1.8804846e-07	0.7144954	-1.9849342e-17	0.2115075
1.8000781915878458e-10	-1.397524e-08	1.5578524e-07	0.7053777	-1.9873105e-17	0.21164231
1.8252593159357793e-10	-4.5448335e-08	1.14567335e-07	0.7005336	-1.9883534e-17	0.21122766
1.8504403624119808e-10	-5.776103e-08	7.7168345e-08	0.699479	-1.9888004e-17	0.21123989
1.875128044372093e-10	-5.7744572e-08	4.9909218e-08	0.7013113	-1.9891285e-17	0.21083981
1.900309328942952e-10	-5.3234306e-08	3.0682976e-08	0.70557857	-1.9896192e-17	0.21120064
1.9254912035424189e-10	-4.6831044e-08	1.777769e-08	0.711908	-1.990403e-17	0.21187203
1.9501793558717268e-10	-4.032902e-08	8.888845e-09	0.71972483	-1.9915098e-17	0.21117221
1.9753614597235175e-10	-3.5851674e-08	1.9752988e-09	0.7289227	-1.9929853e-17	0.2121717
2.000049576160392e-10	-3.0880507e-08	-4.016441e-09	0.7388004	-1.9947416e-17	0.21242487
2.0252316400360468e-10	-2.556366e-08	-8.032882e-09	0.74948865	-1.9967984e-17	0.21195477
2.0504134255155057e-10	-1.9292086e-08	-1.0403241e-08	0.76057124	-1.9990595e-17	0.2128756
2.0751015177101927e-10	-1.3629562e-08	-1.0765379e-08	0.7716027	-2.001403e-17	0.21402334
2.1002833254848585e-10	-9.250983e-09	-9.218062e-09	0.78279525	-2.003842e-17	0.21497068
2.1254650622581596e-10	-5.1028555e-09	-6.5020256e-09	0.79369646	-2.0062462e-17	0.21583821
2.1501528813574648e-10	-2.0740638e-09	-4.152243e-09	0.8038876	-2.0084858e-17	0.21646434
2.1753345980698374e-10	-3.2921648e-11	-6.378569e-11	0.8135805	-2.0105735e-17	0.21812154
2.2000224214540887e-10	1.6460824e-09	3.8312566e-09	0.82223785	-2.0123691e-17	0.2202575
2.2252037813204687e-10	2.5678886e-09	6.716016e-09	0.830099	-2.0139108e-17	0.22137624
2.2503850238933226e-10	3.753068e-09	9.481435e-09	0.83694416	-2.015152e-17	0.22234273
2.275072552064465e-10	4.213971e-09	1.2460844e-08	0.84270567	-2.0160908e-17	0.22384787
2.3002537081940918e-10	3.4403123e-09	1.497935e-08	0.84771	-2.0167883e-17	0.22426635
2.3254347982613834e-10	2.3045155e-10	1.6855884e-08	0.8519649	-2.017251e-17	0.2250535
2.3501221137017497e-10	-2.436202e-09	1.6625432e-08	0.8555446	-2.0175046e-17	0.22595371
2.3753030165683863e-10	-4.312736e-09	1.5604861e-08	0.8587207	-2.0175872e-17	0.22575569
2.4004838755444985e-10	-5.366229e-09	1.5275646e-08	0.8615285	-2.0175182e-17	0.22640583
2.4251710515874483e-10	-6.9793895e-09	1.5209801e-08	0.8640108	-2.0173244e-17	0.22719495
2.450351963746919e-10	-8.543168e-09	1.4551369e-08	0.8663379	-2.0170169e-17	0.22739702
2.475039143062596e-10	-1.0008181e-08	1.3168659e-08	0.8684726	-2.0166212e-17	0.22712666
2.5002200082215714e-10	-1.0864144e-08	1.1325047e-08	0.8705445	-2.0161285e-17	0.22636306
2.5254008584399746e-10	-1.1028752e-08	9.283905e-09	0.8725461	-2.015551e-17	0.22514378
2.5500880281245995e-10	-1.08970655e-08	8.164569e-09	0.8744692	-2.014902e-17	0.22352919
2.5752691105267395e-10	-1.1423812e-08	7.111076e-09	0.8764166	-2.0141515e-17	0.2216638
2.6004500159178843e-10	-1.2839443e-08	6.1234267e-09	0.87837356	-2.0133042e-17	0.22128718
2.6251371559184345e-10	-1.3300346e-08	4.0822843e-09	0.8803231	-2.0123673e-17	0.22044103
2.650318070079155e-10	-1.4320917e-08	2.897105e-09	0.88236636	-2.011287e-17	0.21904731
2.6750053917940006e-10	-1.5209801e-08	1.1193361e-09	0.8844468	-2.0100836e-17	0.21763015
2.7001865275819523e-10	-1.5473175e-08	-2.6337318e-10	0.8866741	-2.0086794e-17	0.21752137
2.725367586448893e-10	-1.659251e-08	-1.9752988e-09	0.8890387	-2.0070566e-17	0.21669817
2.7500547856726806e-10	-1.7909377e-08	-4.1481276e-09	0.8915248	-2.0052038e-17	0.2150338
2.7752359576096995e-10	-1.8897026e-08	-6.913546e-09	0.89427423	-2.0029765e-17	0.21516421
2.8004172100600476e-10	-1.8699497e-08	-1.1061674e-08	0.8972902	-2.0003153e-17	0.21455002
2.8251045973501654e-10	-1.8699497e-08	-1.4419682e-08	0.9005652	-1.9971617e-17	0.21346922
2.850285803238246e-10	-1.9357929e-08	-1.9818833e-08	0.9043009	-1.9932163e-17	0.21382682
2.8754671056525814e-10	-1.8995792e-08	-2.5810573e-08	0.90851635	-1.9882932e-17	0.21294415
2.9001546565712625e-10	-1.6724197e-08	-3.2263216e-08	0.91319335	-1.9821921e-17	0.21334821
2.9253360273035754e-10	-1.2905287e-08	-4.2666457e-08	0.9185753	-1.974201e-17	0.21374507
2.950023752642773e-10	-4.6748743e-09	-5.3991503e-08	0.9244283	-1.9639892e-17	0.21360002
2.975205346836864e-10	8.559629e-09	-6.544824e-08	0.93075687	-1.9502e-17	0.21325952
3.0003870491868515e-10	3.0024545e-08	-7.690497e-08	0.9367331	-1.931631e-17	0.21216094
3.025075105387859e-10	5.985156e-08	-8.3489304e-08	0.94055223	-1.9071547e-17	0.21086602
3.050257022760287e-10	9.9505684e-08	-8.0328824e-08	0.93864983	-1.8756698e-17	0.20864265
3.075439038304262e-10	1.4108572e-07	-5.530837e-08	0.9247022	-1.8455776e-17	0.21200293
3.1001273086153286e-10	1.6513499e-07	2.7654186e-09	0.89568985	-1.8359778e-17	0.23508374
3.1253095300943646e-10	1.6882221e-07	6.136595e-08	0.85928094	-1.8605075e-17	0.24662383
3.1504916621088816e-10	1.5117621e-07	1.1311879e-07	0.82517546	-1.9027556e-17	0.21029885
3.1751816335152706e-10	8.994194e-08	1.5197456e-07	0.79411995	-1.9369394e-17	0.20031707
3.200368002485874e-10	1.3399111e-08	1.6019675e-07	0.7658486	-1.9598263e-17	0.20220922
3.225056936425945e-10	-4.834544e-08	1.3833677e-07	0.74272907	-1.9735214e-17	0.20690346
3.250236367672745e-10	-8.307778e-08	9.771145e-08	0.72451574	-1.9815532e-17	0.2107458
3.2754171247676276e-10	-9.229584e-08	5.412319e-08	0.7116464	-1.9857495e-17	0.21203892
3.300104649691145e-10	-8.341111e-08	1.896287e-08	0.703713	-1.9876758e-17	0.21117562
3.3252856010733644e-10	-6.66828e-08	-4.872404e-09	0.69993424	-1.9885018e-17	0.21128565
3.3504666993862945e-10	-4.9431854e-08	-1.7843533e-08	0.6997135	-1.988884e-17	0.21117818
3.3751541836095077e-10	-3.4403122e-08	-2.2386722e-08	0.70219773	-1.9892329e-17	0.2106264
3.40033562463501e-10	-2.3720048e-08	-2.2123348e-08	0.707033	-1.9897902e-17	0.21150039
3.425023619243219e-10	-1.618099e-08	-2.1859975e-08	0.713683	-1.9906414e-17	0.21176855
3.4502054744588447e-10	-1.0271554e-08	-2.1991662e-08	0.7220013	-1.9918589e-17	0.21174388
3.4753871352195675e-10	-4.510266e-09	-2.0938169e-08	0.7314578	-1.9934207e-17	0.2118142
3.5000751683015164e-10	7.2016104e-10	-1.817275e-08	0.74151486	-1.9952505e-17	0.21265347
3.525256994384045e-10	4.0822843e-09	-1.4748899e-08	0.75232637	-1.9973666e-17	0.21274382
3.550438570954294e-10	5.8271317e-09	-1.1851793e-08	0.7634745	-1.9996686e-17	0.21254584
3.5751265638933253e-10	6.6830945e-09	-8.493785e-09	0.77451265	-2.0020324e-17	0.21372595
3.6003082567450065e-10	6.7818595e-09	-6.716016e-09	0.78565174	-2.0044707e-17	0.21509385
3.625489785761866e-10	6.1563483e-09	-3.3662386e-09	0.7964409	-2.0068515e-17	0.21639246
3.6501775018454265e-10	5.069934e-09	-5.555528e-10	0.8064696	-2.0090475e-17	0.21749099
3.6753588701473045e-10	3.8189114e-09	1.3827093e-09	0.8159508	-2.011073e-17	0.21819314
3.700046472461363e-10	6.58433e-10	2.4032802e-09	0.82436734	-2.0127968e-17	0.22032022
3.725227563003736e-10	-4.2798143e-10	4.1810493e-09	0.8319661	-2.0142604e-17	0.22201353
3.7504085696492806e-10	-1.3827093e-09	5.464994e-09	0.8385522	-2.0154256e-17	0.22200514
3.7750957732999107e-10	-3.9505976e-09	6.3044956e-09	0.84407914	-2.0162954e-17	0.22418916
3.800276514597555e-10	-5.333307e-09	5.530837e-09	0.84887636	-2.016929e-17	0.22402932
3.8254572645429097e-10	-6.3868e-09	3.6872247e-09	0.8529604	-2.017336e-17	0.2253938
3.8501442450964585e-10	-6.650173e-09	1.9094557e-09	0.8564068	-2.0175418e-17	0.22599974
3.87532483786825e-10	-6.2221917e-09	2.6337318e-10	0.85947794	-2.0175828e-17	0.2255575
3.9000116943370227e-10	-5.464994e-09	-3.950598e-10	0.862155	-2.0174816e-17	0.22666483
3.925192376870806e-10	-4.411501e-09	3.950598e-10	0.86462975	-2.017255e-17	0.22729205
3.950372974292366e-10	-5.4979155e-09	-3.2921648e-11	0.8669129	-2.0169214e-17	0.22737642
3.9750599139489724e-10	-5.563759e-09	-2.0411421e-09	0.8690168	-2.0165019e-17	0.22697574
4.0002404349947106e-10	-4.9053255e-09	-3.1934e-09	0.87106735	-2.0159872e-17	0.22608936
4.0254210089202825e-10	-3.8847547e-09	-4.2798143e-09	0.8730558	-2.0153878e-17	0.22476031
4.050107957989964e-10	-2.6008102e-09	-4.3456576e-09	0.8749729	-2.0147168e-17	0.22303498
4.0752885844457224e-10	-1.3827093e-09	-3.8189114e-09	0.8769205	-2.0139424e-17	0.22161148
4.100469201064195e-10	-1.1851794e-09	-3.2921648e-09	0.8788834	-2.0130683e-17	0.22111142
4.1251560685799236e-10	-9.876494e-10	-3.753068e-09	0.88084483	-2.0121011e-17	0.22013608
4.1503368340210687e-10	-1.3168659e-10	-4.213971e-09	0.88290626	-2.0109846e-17	0.21858986
4.1750237129283554e-10	1.2839443e-09	-4.5431876e-09	0.8850109	-2.0097394e-17	0.21766329
4.2002045839465315e-10	2.1728288e-09	-5.3991505e-09	0.8872706	-2.0082829e-17	0.2173824
4.225385188618281e-10	2.7654186e-09	-5.135777e-09	0.8896761	-2.0065959e-17	0.21635082
4.2500722329288917e-10	3.9505976e-09	-4.7407176e-09	0.8922126	-2.0046641e-17	0.2148653
4.275252977314226e-10	4.938247e-09	-5.2016205e-09	0.8950255	-2.0023351e-17	0.215131
4.300433818679339e-10	5.366229e-09	-5.069934e-09	0.8981199	-1.9995427e-17	0.21415521
4.3251209092583575e-10	6.847703e-09	-4.872404e-09	0.90148884	-1.9962212e-17	0.21374702
4.350301868935067e-10	8.625472e-09	-4.016441e-09	0.90534043	-1.9920501e-17	0.2135553
4.3754828143052537e-10	1.05020055e-08	-2.7901097e-09	0.9096933	-1.9868245e-17	0.2133803
4.400170152505441e-10	1.158842e-08	-1.1851794e-09	0.91452307	-1.980322e-17	0.2127949
4.4253513098203944e-10	1.4485526e-08	6.58433e-10	0.9200659	-1.9717711e-17	0.21370067
4.4500387686872783e-10	1.734971e-08	4.4773443e-09	0.92604494	-1.9608007e-17	0.21396469
4.475220113692328e-10	1.9357929e-08	1.0929988e-08	0.9323803	-1.945929e-17	0.21372455
4.5004015479317295e-10	1.919332e-08	1.9621302e-08	0.93803954	-1.9258482e-17	0.21245258
4.525089520525067e-10	1.6296216e-08	2.9366111e-08	0.9408323	-1.8995518e-17	0.210028
4.550271253800723e-10	9.320941e-09	3.8847546e-08	0.93647784	-1.8671333e-17	0.2075923
4.575453180755674e-10	-3.7859897e-09	4.5431875e-08	0.91844946	-1.8403048e-17	0.21593921
4.600141324705849e-10	-2.2847624e-08	4.2666457e-08	0.8863385	-1.8389739e-17	0.24352133
4.625323189546393e-10	-3.8847546e-08	3.6608874e-08	0.8502171	-1.8710683e-17	0.2348341
4.650011622164082e-10	-4.9909218e-08	2.1069855e-08	0.8173886	-1.912176e-17	0.20653641
4.675196027581756e-10	-5.0370122e-08	-3.6872247e-09	0.786432	-1.943911e-17	0.19934991
4.700382581959451e-10	-3.8617095e-08	-2.2287956e-08	0.7592796	-1.964137e-17	0.20274481
4.725069495572111e-10	-2.4320867e-08	-3.2789963e-08	0.7374955	-1.9760708e-17	0.20824343
4.750248640200924e-10	-1.0765379e-08	-3.469942e-08	0.72070354	-1.982931e-17	0.2108663
4.775429441307482e-10	1.2345618e-09	-3.1473096e-08	0.70912397	-1.9864157e-17	0.21213716
4.800116704763547e-10	8.296255e-09	-2.4230333e-08	0.7023462	-1.9879648e-17	0.21088538
4.825297212373647e-10	1.3168659e-08	-1.659251e-08	0.6995734	-1.9886224e-17	0.21129872
4.850477848741871e-10	1.4798281e-08	-1.0929988e-08	0.7001307	-1.9889669e-17	0.2110883
4.875165162410509e-10	1.4946428e-08	-6.716016e-09	0.70323694	-1.9893513e-17	0.21053028
4.900346355124593e-10	1.4913507e-08	-1.777769e-09	0.70861566	-1.9899825e-17	0.21172912
4.925034074961663e-10	1.2263314e-08	1.316866e-09	0.7156986	-1.9909217e-17	0.21149871
4.95021573085006e-10	1.0995831e-08	2.0905246e-09	0.72434765	-1.9922301e-17	0.2121148
4.975397081864426e-10	1.018925e-08	3.0205614e-09	0.7340403	-1.9938755e-17	0.2112467
5.000084760757309e-10	1.0090485e-08	4.1481276e-09	0.74426	-1.9957747e-17	0.21254444
5.025266312057888e-10	8.329177e-09	6.1234267e-09	0.7551795	-1.9979457e-17	0.21315925
5.050447923338486e-10	6.99585e-09	6.551408e-09	0.76637834	-2.0002839e-17	0.21345347
5.075135548729444e-10	5.333307e-09	5.99174e-09	0.7774075	-2.0026622e-17	0.21353506
5.100316777813947e-10	4.2468926e-09	4.59257e-09	0.7884778	-2.0050937e-17	0.2147585
5.125004237142617e-10	3.156363e-09	4.1069756e-09	0.7989367	-2.007401e-17	0.21650653
5.150185368847024e-10	3.2921648e-09	4.199568e-09	0.80899465	-2.0095933e-17	0.21809454
5.175366409491365e-10	2.9876397e-09	3.504098e-09	0.8182545	-2.0115532e-17	0.21926498
5.200053589956612e-10	2.3374371e-09	2.4032802e-09	0.8264247	-2.0132031e-17	0.22005744
5.225234285780737e-10	1.8436124e-09	2.6255014e-09	0.83376074	-2.0145891e-17	0.22236624
5.250415134840575e-10	3.2921648e-11	-5.5966803e-10	0.8400919	-2.0156798e-17	0.22276372
5.275101904617381e-10	1.5802392e-09	-2.897105e-09	0.8453925	-2.0164822e-17	0.2243556
5.300282526271293e-10	4.1481276e-09	-2.6666536e-09	0.8499921	-2.0170546e-17	0.22411354
5.325463000715015e-10	5.3003855e-09	-1.4156308e-09	0.8539152	-2.0174075e-17	0.22566886
5.350149530328134e-10	5.1193165e-09	6.58433e-10	0.8572372	-2.017568e-17	0.22597526
5.375329750983713e-10	6.2221917e-09	2.5678886e-09	0.86021036	-2.0175688e-17	0.22582865
5.400016386125082e-10	4.5431876e-09	3.555538e-09	0.86281496	-2.0174343e-17	0.22689493
5.425196794573952e-10	2.732497e-09	1.9094557e-09	0.8652344	-2.0171787e-17	0.2273452
5.450377171309867e-10	4.3456576e-09	6.58433e-10	0.8674773	-2.0168195e-17	0.22731796
5.475063744807296e-10	6.9793895e-09	1.8436124e-09	0.86955327	-2.0163775e-17	0.22679105
5.500244042941836e-10	7.802431e-09	4.2468926e-09	0.8715846	-2.015841e-17	0.22578925
5.525424459527236e-10	7.242763e-09	6.18927e-09	0.8735619	-2.0152198e-17	0.22434674
5.550111017005646e-10	5.7283667e-09	7.111076e-09	0.8754748	-2.0145264e-17	0.22251134
5.575291415577307e-10	5.267464e-09	6.3868e-09	0.877424	-2.0137269e-17	0.22152793
5.600471744120162e-10	5.9588183e-09	5.99174e-09	0.8793947	-2.012825e-17	0.22090395
5.62515833066606e-10	6.7818595e-09	6.9793895e-09	0.8813693	-2.0118268e-17	0.21979325
5.6503387025002e-10	7.111076e-09	8.559629e-09	0.88345045	-2.010673e-17	0.21809372
5.675025571238896e-10	7.1769195e-09	1.0403241e-08	0.88558114	-2.0093832e-17	0.2176539
5.700206198269554e-10	5.79421e-09	1.2707757e-08	0.8878752	-2.0078722e-17	0.21719576
5.72538669924827e-10	4.839482e-09	1.3563719e-08	0.8903243	-2.0061175e-17	0.21594143
